650.000	 1.1350E-03
651.000	 1.1265E-03
652.000	 1.1180E-03
653.000	 1.1068E-03
654.000	 1.0956E-03
655.000	 1.0829E-03
656.000	 1.0703E-03
657.000	 1.0564E-03
658.000	 1.0426E-03
659.000	 1.0278E-03
660.000	 1.0131E-03
661.000	 9.9748E-04
662.000	 9.8180E-04
663.000	 9.6518E-04
664.000	 9.4856E-04
665.000	 9.3130E-04
666.000	 9.1401E-04
667.000	 8.9739E-04
668.000	 8.8077E-04
669.000	 8.6392E-04
670.000	 8.4707E-04
671.000	 8.3040E-04
672.000	 8.1373E-04
673.000	 7.9730E-04
674.000	 7.8086E-04
675.000	 7.6482E-04
676.000	 7.4877E-04
677.000	 7.3298E-04
678.000	 7.1721E-04
679.000	 7.0354E-04
680.000	 6.8986E-04
681.000	 6.7900E-04
682.000	 6.6813E-04
683.000	 6.5890E-04
684.000	 6.4969E-04
685.000	 6.4131E-04
686.000	 6.3291E-04
687.000	 6.2568E-04
688.000	 6.1846E-04
689.000	 6.1226E-04
690.000	 6.0607E-04
691.000	 6.0066E-04
692.000	 5.9523E-04
693.000	 5.9074E-04
694.000	 5.8627E-04
695.000	 5.8102E-04
696.000	 5.7580E-04
697.000	 5.7103E-04
698.000	 5.6627E-04
699.000	 5.6114E-04
700.000	 5.5603E-04
701.000	 5.5068E-04
702.000	 5.4534E-04
703.000	 5.3954E-04
704.000	 5.3372E-04
705.000	 5.2842E-04
706.000	 5.2313E-04
707.000	 5.1671E-04
708.000	 5.1028E-04
709.000	 5.0388E-04
710.000	 4.9751E-04
711.000	 4.9175E-04
712.000	 4.8600E-04
713.000	 4.7930E-04
714.000	 4.7260E-04
715.000	 4.6627E-04
716.000	 4.5994E-04
717.000	 4.5432E-04
718.000	 4.4871E-04
719.000	 4.4369E-04
720.000	 4.3865E-04
721.000	 4.3459E-04
722.000	 4.3054E-04
723.000	 4.2767E-04
724.000	 4.2479E-04
725.000	 4.2258E-04
726.000	 4.2037E-04
727.000	 4.1850E-04
728.000	 4.1664E-04
729.000	 4.1570E-04
730.000	 4.1475E-04
731.000	 4.1459E-04
732.000	 4.1445E-04
733.000	 4.1434E-04
734.000	 4.1422E-04
735.000	 4.1459E-04
736.000	 4.1496E-04
737.000	 4.1540E-04
738.000	 4.1583E-04
739.000	 4.1682E-04
740.000	 4.1781E-04
741.000	 4.1926E-04
742.000	 4.2069E-04
743.000	 4.2212E-04
744.000	 4.2354E-04
745.000	 4.2474E-04
746.000	 4.2592E-04
747.000	 4.2686E-04
748.000	 4.2783E-04
749.000	 4.2898E-04
750.000	 4.3013E-04
751.000	 4.3204E-04
752.000	 4.3395E-04
753.000	 4.3547E-04
754.000	 4.3699E-04
755.000	 4.3782E-04
756.000	 4.3865E-04
757.000	 4.3936E-04
758.000	 4.4007E-04
759.000	 4.4079E-04
760.000	 4.4148E-04
761.000	 4.4212E-04
762.000	 4.4279E-04
763.000	 4.4394E-04
764.000	 4.4509E-04
765.000	 4.4638E-04
766.000	 4.4765E-04
767.000	 4.4884E-04
768.000	 4.5002E-04
769.000	 4.5124E-04
770.000	 4.5248E-04
771.000	 4.5361E-04
772.000	 4.5474E-04
773.000	 4.5603E-04
774.000	 4.5734E-04
775.000	 4.5930E-04
776.000	 4.6125E-04
777.000	 4.6397E-04
778.000	 4.6668E-04
779.000	 4.6931E-04
780.000	 4.7191E-04
781.000	 4.7449E-04
782.000	 4.7707E-04
783.000	 4.7999E-04
784.000	 4.8294E-04
785.000	 4.8528E-04
786.000	 4.8763E-04
787.000	 4.8966E-04
788.000	 4.9171E-04
789.000	 4.9339E-04
790.000	 4.9507E-04
791.000	 4.9659E-04
792.000	 4.9811E-04
793.000	 5.0098E-04
794.000	 5.0384E-04
795.000	 5.0679E-04
796.000	 5.0971E-04
797.000	 5.1286E-04
798.000	 5.1602E-04
799.000	 5.1836E-04
800.000	 5.2069E-04
801.000	 5.2177E-04
802.000	 5.2285E-04
803.000	 5.2398E-04
804.000	 5.2513E-04
805.000	 5.2647E-04
806.000	 5.2778E-04
807.000	 5.2925E-04
808.000	 5.3073E-04
809.000	 5.3208E-04
810.000	 5.3342E-04
811.000	 5.3434E-04
812.000	 5.3528E-04
813.000	 5.3593E-04
814.000	 5.3657E-04
815.000	 5.3717E-04
816.000	 5.3777E-04
817.000	 5.3839E-04
818.000	 5.3901E-04
819.000	 5.3963E-04
820.000	 5.4026E-04
821.000	 5.4046E-04
822.000	 5.4065E-04
823.000	 5.4030E-04
824.000	 5.3993E-04
825.000	 5.3934E-04
826.000	 5.3874E-04
827.000	 5.3795E-04
828.000	 5.3717E-04
829.000	 5.3637E-04
830.000	 5.3556E-04
831.000	 5.3482E-04
832.000	 5.3406E-04
833.000	 5.3347E-04
834.000	 5.3287E-04
835.000	 5.3248E-04
836.000	 5.3206E-04
837.000	 5.3190E-04
838.000	 5.3172E-04
839.000	 5.3153E-04
840.000	 5.3132E-04
841.000	 5.3089E-04
842.000	 5.3045E-04
843.000	 5.2990E-04
844.000	 5.2934E-04
845.000	 5.2882E-04
846.000	 5.2826E-04
847.000	 5.2794E-04
848.000	 5.2760E-04
849.000	 5.2743E-04
850.000	 5.2727E-04
851.000	 5.2667E-04
852.000	 5.2608E-04
853.000	 5.2497E-04
854.000	 5.2387E-04
855.000	 5.2221E-04
856.000	 5.2055E-04
857.000	 5.1857E-04
858.000	 5.1661E-04
859.000	 5.1503E-04
860.000	 5.1342E-04
861.000	 5.1240E-04
862.000	 5.1137E-04
863.000	 5.1035E-04
864.000	 5.0936E-04
865.000	 5.0803E-04
866.000	 5.0667E-04
867.000	 5.0508E-04
868.000	 5.0349E-04
869.000	 5.0121E-04
870.000	 4.9894E-04
871.000	 4.9560E-04
872.000	 4.9226E-04
873.000	 4.8931E-04
874.000	 4.8637E-04
875.000	 4.8409E-04
876.000	 4.8181E-04
877.000	 4.7987E-04
878.000	 4.7796E-04
879.000	 4.7615E-04
880.000	 4.7435E-04
881.000	 4.7260E-04
882.000	 4.7085E-04
883.000	 4.6866E-04
884.000	 4.6650E-04
885.000	 4.6418E-04
886.000	 4.6185E-04
887.000	 4.5946E-04
888.000	 4.5706E-04
889.000	 4.5407E-04
890.000	 4.5105E-04
891.000	 4.4813E-04
892.000	 4.4521E-04
893.000	 4.4205E-04
894.000	 4.3890E-04
895.000	 4.3545E-04
896.000	 4.3199E-04
897.000	 4.2861E-04
898.000	 4.2523E-04
899.000	 4.2226E-04
900.000	 4.1926E-04
901.000	 4.1696E-04
902.000	 4.1464E-04
903.000	 4.1282E-04
904.000	 4.1100E-04
905.000	 4.0939E-04
906.000	 4.0775E-04
907.000	 4.0628E-04
908.000	 4.0481E-04
909.000	 4.0338E-04
910.000	 4.0193E-04
911.000	 3.9967E-04
912.000	 3.9744E-04
913.000	 3.9518E-04
914.000	 3.9291E-04
915.000	 3.9065E-04
916.000	 3.8842E-04
917.000	 3.8524E-04
918.000	 3.8206E-04
919.000	 3.7882E-04
920.000	 3.7557E-04
921.000	 3.7228E-04
922.000	 3.6899E-04
923.000	 3.6517E-04
924.000	 3.6134E-04
925.000	 3.5669E-04
926.000	 3.5202E-04
927.000	 3.4774E-04
928.000	 3.4344E-04
929.000	 3.4005E-04
930.000	 3.3667E-04
931.000	 3.3333E-04
932.000	 3.2999E-04
933.000	 3.2599E-04
934.000	 3.2200E-04
935.000	 3.1768E-04
936.000	 3.1337E-04
937.000	 3.0909E-04
938.000	 3.0481E-04
939.000	 3.0048E-04
940.000	 2.9615E-04
941.000	 2.9291E-04
942.000	 2.8966E-04
943.000	 2.8708E-04
944.000	 2.8453E-04
945.000	 2.8218E-04
946.000	 2.7983E-04
947.000	 2.7656E-04
948.000	 2.7327E-04
949.000	 2.6929E-04
950.000	 2.6531E-04
951.000	 2.6128E-04
952.000	 2.5725E-04
953.000	 2.5343E-04
954.000	 2.4961E-04
955.000	 2.4735E-04
956.000	 2.4512E-04
957.000	 2.4261E-04
958.000	 2.4008E-04
959.000	 2.3840E-04
960.000	 2.3669E-04
961.000	 2.3609E-04
962.000	 2.3547E-04
963.000	 2.3531E-04
964.000	 2.3515E-04
965.000	 2.3220E-04
966.000	 2.2926E-04
967.000	 2.2569E-04
968.000	 2.2212E-04
969.000	 2.1832E-04
970.000	 2.1452E-04
971.000	 2.1174E-04
972.000	 2.0898E-04
973.000	 2.0706E-04
974.000	 2.0518E-04
975.000	 2.0403E-04
976.000	 2.0288E-04
977.000	 2.0195E-04
978.000	 2.0103E-04
979.000	 1.9958E-04
980.000	 1.9811E-04
981.000	 1.9579E-04
982.000	 1.9344E-04
983.000	 1.9088E-04
984.000	 1.8830E-04
985.000	 1.8630E-04
986.000	 1.8428E-04
